-0.0720210000000000
-0.0636290000000000
-0.0364690000000000
-0.0637820000000000
-0.0750730000000000
-0.132141000000000
-0.168457000000000
-0.157166000000000
-0.0706480000000000
-0.0959780000000000
-0.181427000000000
-0.152740000000000
-0.141602000000000
-0.0988770000000000
-0.0704960000000000
-0.0981140000000000
-0.125122000000000
-0.150604000000000
-0.104218000000000
-0.0942990000000000
-0.162048000000000
-0.160980000000000
-0.225372000000000
-0.244751000000000
-0.208588000000000
-0.157318000000000
-0.180054000000000
-0.198822000000000
-0.209045000000000
-0.125427000000000
-0.102539000000000
-0.105438000000000
-0.0866700000000000
-0.123444000000000
-0.139771000000000
-0.106201000000000
-0.106659000000000
-0.155487000000000
-0.189972000000000
-0.188293000000000
-0.236359000000000
-0.175781000000000
-0.140228000000000
-0.175781000000000
-0.200653000000000
-0.151672000000000
-0.149384000000000
-0.116730000000000
-0.0910950000000000
-0.0953670000000000
-0.142059000000000
-0.135803000000000
-0.131226000000000
-0.118561000000000
-0.134125000000000
-0.159149000000000
-0.158844000000000
-0.173492000000000
-0.113220000000000
-0.166473000000000
-0.175476000000000
-0.194702000000000
-0.126801000000000
-0.0708010000000000
-0.0817870000000000
-0.0694270000000000
-0.102234000000000
-0.0894170000000000
-0.0746150000000000
-0.0923160000000000
-0.0798030000000000
-0.150299000000000
-0.166626000000000
-0.212555000000000
-0.173950000000000
-0.0848390000000000
-0.127869000000000
-0.146179000000000
-0.150146000000000
-0.0892640000000000
-0.0849910000000000
-0.0906370000000000
-0.0587460000000000
-0.131836000000000
-0.0898740000000000
-0.0808720000000000
-0.115204000000000
-0.155945000000000
-0.139618000000000
-0.130920000000000
-0.196838000000000
-0.159149000000000
-0.139465000000000
-0.183411000000000
-0.145721000000000
-0.136414000000000
-0.0714110000000000
-0.0659180000000000
-0.0466920000000000
-0.0967410000000000
-0.121307000000000
-0.0967410000000000
-0.0921630000000000
-0.111542000000000
-0.139313000000000
-0.176392000000000
-0.176239000000000
-0.181274000000000
-0.136261000000000
-0.169220000000000
-0.164642000000000
-0.123901000000000
-0.0691220000000000
-0.0697330000000000
-0.0517270000000000
-0.0489810000000000
-0.101776000000000
-0.114441000000000
-0.0886540000000000
-0.125275000000000
-0.119934000000000
-0.146637000000000
-0.167389000000000
-0.191956000000000
-0.176086000000000
-0.114746000000000
-0.194244000000000
-0.153961000000000
-0.131531000000000
-0.0875850000000000
-0.0599670000000000
-0.0331120000000000
-0.0402830000000000
-0.105438000000000
-0.0474550000000000
-0.0401310000000000
-0.0740050000000000
-0.0941470000000000
-0.116577000000000
-0.153351000000000
-0.164337000000000
-0.130768000000000
-0.0872800000000000
-0.0892640000000000
-0.0784300000000000
-0.0132750000000000
0.0205990000000000
0.0288390000000000
0.0257870000000000
0.0482180000000000
-0.00381500000000000
0.0128170000000000
0.0277710000000000
0.0190730000000000
-0.0169370000000000
0.0233460000000000
-0.00625600000000000
0.0335690000000000
0.0981140000000000
0.0494380000000000
0.0561520000000000
0.0701900000000000
0.0527950000000000
0.0872800000000000
0.132904000000000
0.119781000000000
0.0492860000000000
0.0698850000000000
0.154114000000000
0.0950620000000000
0.0529480000000000
0.0407410000000000
0.00473000000000000
-0.0302120000000000
0.0111390000000000
0.0686650000000000
0.0662230000000000
0.0752260000000000
0.0762940000000000
0.0888060000000000
0.100250000000000
0.120239000000000
0.101471000000000
0.106506000000000
0.0909420000000000
0.110168000000000
0.152435000000000
0.0669860000000000
0.0526430000000000
0.00152600000000000
0.0169370000000000
0.0195310000000000
0.0607300000000000
0.0205990000000000
-0.0245670000000000
0.00717200000000000
-0.0318910000000000
0.0314330000000000
0.0299070000000000
-0.00808700000000000
-0.0611880000000000
-0.00198400000000000
0.0109860000000000
-0.0161740000000000
-0.0340270000000000
-0.0430300000000000
-0.0660710000000000
-0.0660710000000000
-0.0115970000000000
-0.0375370000000000
-0.0267030000000000
-0.0152590000000000
0.0247190000000000
0.0202940000000000
0.0444030000000000
0.0482180000000000
0.00412000000000000
-0.00335700000000000
-0.00488300000000000
-0.0419620000000000
-0.0529480000000000
-0.119019000000000
-0.150299000000000
-0.117035000000000
-0.136261000000000
-0.124817000000000
-0.182190000000000
-0.157166000000000
-0.112915000000000
-0.116119000000000
-0.0953670000000000
-0.0653080000000000
-0.0601200000000000
-0.115356000000000
-0.126495000000000
-0.124054000000000
-0.137482000000000
-0.202332000000000
-0.216217000000000
-0.246277000000000
-0.240936000000000
-0.179596000000000
-0.172729000000000
-0.192719000000000
-0.193329000000000
-0.156708000000000
-0.133362000000000
-0.137024000000000
-0.125427000000000
-0.144196000000000
-0.176544000000000
-0.134277000000000
-0.134277000000000
-0.133057000000000
-0.159912000000000
-0.200806000000000
-0.224915000000000
-0.203400000000000
-0.151978000000000
-0.178375000000000
-0.202179000000000
-0.148315000000000
-0.126648000000000
-0.110321000000000
-0.0485230000000000
-0.115814000000000
-0.137482000000000
-0.133820000000000
-0.121613000000000
-0.129395000000000
-0.163269000000000
-0.170593000000000
-0.173187000000000
-0.179138000000000
-0.169220000000000
-0.124207000000000
-0.156555000000000
-0.149689000000000
-0.159149000000000
-0.109558000000000
-0.0895690000000000
-0.122375000000000
-0.154724000000000
-0.215607000000000
-0.219116000000000
-0.180969000000000
-0.213470000000000
-0.258179000000000
-0.271301000000000
-0.290527000000000
-0.332642000000000
-0.272522000000000
-0.240784000000000
-0.258026000000000
-0.141296000000000
-0.0756840000000000
-0.0202940000000000
0.109711000000000
0.157623000000000
0.233459000000000
0.230560000000000
0.379181000000000
0.516815000000000
0.508270000000000
0.651398000000000
0.867615000000000
1.04202300000000
1.24603300000000
1.51870700000000
1.71066300000000
1.87179600000000
2.06466700000000
2.19329800000000
2.36496000000000
2.47039800000000
2.67150900000000
2.65228300000000
2.65945400000000
2.64724700000000
2.63977100000000
2.65548700000000
2.52624500000000
2.32635500000000
2.08465600000000
1.85165400000000
1.59759500000000
1.36123700000000
1.22787500000000
1.04843100000000
0.929413000000000
0.829620000000000
0.642548000000000
0.486603000000000
0.240173000000000
0.00778200000000000
-0.101624000000000
-0.264740000000000
-0.440369000000000
-0.549011000000000
-0.635529000000000
-0.746002000000000
-0.776062000000000
-0.828400000000000
-0.840759000000000
-0.881042000000000
-0.877991000000000
-0.885925000000000
-0.862885000000000
-0.838928000000000
-0.867920000000000
-0.876617000000000
-0.774994000000000
-0.750580000000000
-0.792389000000000
-0.779266000000000
-0.818634000000000
-0.815735000000000
-0.709991000000000
-0.669708000000000
-0.658417000000000
-0.633698000000000
-0.615997000000000
-0.546875000000000
-0.477448000000000
-0.424194000000000
-0.403137000000000
-0.440674000000000
-0.377350000000000
-0.323334000000000
-0.251770000000000
-0.261993000000000
-0.239868000000000
-0.258026000000000
-0.273437000000000
-0.203857000000000
-0.159760000000000
-0.172882000000000
-0.148773000000000
-0.113068000000000
-0.0807190000000000
-0.00351000000000000
0.0573730000000000
0.0308230000000000
0.0224300000000000
0.0111390000000000
0.0144960000000000
0.0141910000000000
-0.0495910000000000
-0.0355530000000000
-0.0831600000000000
-0.0502010000000000
0.0268550000000000
-0.000305000000000000
-0.00518800000000000
0.0204470000000000
0.0335690000000000
0.0477600000000000
0.0816350000000000
0.0854490000000000
0.0685120000000000
0.0276180000000000
0.0605770000000000
0.0267030000000000
0.0296020000000000
0.00412000000000000
-0.0343320000000000
-0.0300600000000000
0.0184630000000000
0.0511170000000000
0.000763000000000000
-0.00335700000000000
0.0569150000000000
0.0561520000000000
0.0953670000000000
0.0856020000000000
0.115509000000000
0.0694270000000000
0.0492860000000000
0.0625610000000000
0.104065000000000
0.0895690000000000
0.00289900000000000
0.00793500000000000
-0.0180050000000000
0.0228880000000000
0.0328060000000000
0.0683590000000000
0.0393680000000000
0.0700380000000000
0.0952150000000000
0.0950620000000000
0.139771000000000
0.111237000000000
0.0646970000000000
0.142059000000000
0.122070000000000
0.0901790000000000
0.0576780000000000
0.0111390000000000
-0.00885000000000000
0.00274700000000000
0.0534060000000000
0.0814820000000000
-0.00396700000000000
0.0480650000000000
0.0674440000000000
0.0561520000000000
0.0981140000000000
0.109863000000000
0.0599670000000000
0.0523380000000000
0.0849910000000000
0.146942000000000
0.0769040000000000
0.0776670000000000
0.0207520000000000
0.0137330000000000
0.0370790000000000
0.0573730000000000
0.0392150000000000
0.0610350000000000
0.112610000000000
0.139771000000000
0.127411000000000
0.119781000000000
0.112610000000000
0.0807190000000000
0.0862120000000000
0.144196000000000
0.126648000000000
0.121460000000000
0.140991000000000
0.0856020000000000
0.109863000000000
0.119019000000000
0.118408000000000
0.0738530000000000
0.143433000000000
0.145874000000000
0.150452000000000
0.215454000000000
0.209045000000000
0.213318000000000
0.163116000000000
0.183868000000000
0.229034000000000
0.191956000000000
0.210571000000000
0.142517000000000
0.135803000000000
0.158844000000000
0.197449000000000
0.224457000000000
0.179901000000000
0.228729000000000
0.254669000000000
0.261230000000000
0.294037000000000
0.319366000000000
0.289307000000000
0.288696000000000
0.333862000000000
0.334015000000000
0.335083000000000
0.327911000000000
0.340271000000000
0.298309000000000
0.319366000000000
0.385284000000000
0.359802000000000
0.366669000000000
0.426025000000000
0.446014000000000
0.513916000000000
0.546417000000000
0.549164000000000
0.476074000000000
0.476379000000000
0.493927000000000
0.591583000000000
0.503235000000000
0.538635000000000
0.430756000000000
0.471039000000000
0.539398000000000
0.585327000000000
0.552521000000000
0.573883000000000
0.614777000000000
0.657349000000000
0.667572000000000
0.693817000000000
0.700684000000000
0.654449000000000
0.672760000000000
0.710144000000000
0.700378000000000
0.616913000000000
0.623474000000000
0.595703000000000
0.650635000000000
0.711517000000000
0.679474000000000
0.674438000000000
0.618591000000000
0.698700000000000
0.722504000000000
0.742798000000000
0.729675000000000
0.694580000000000
0.668030000000000
0.747375000000000
0.745392000000000
0.696869000000000
0.659027000000000
0.632324000000000
0.622864000000000
0.614929000000000
0.685120000000000
0.631104000000000
0.581512000000000
0.633392000000000
0.652466000000000
0.699615000000000
0.726471000000000
0.671234000000000
0.648956000000000
0.645447000000000
0.653992000000000
0.599823000000000
0.584564000000000
0.559845000000000
0.533447000000000
0.482330000000000
0.507355000000000
0.505219000000000
0.496216000000000
0.470123000000000
0.489502000000000
0.521088000000000
0.510864000000000
0.495148000000000
0.431824000000000
0.390472000000000
0.408783000000000
0.420227000000000
0.374298000000000
0.301819000000000
0.262604000000000
0.245514000000000
0.253754000000000
0.289154000000000
0.279388000000000
0.233765000000000
0.236053000000000
0.268860000000000
0.265503000000000
0.292358000000000
0.263519000000000
0.219116000000000
0.191345000000000
0.179749000000000
0.156097000000000
0.152435000000000
0.0956730000000000
0.0700380000000000
0.0892640000000000
0.106049000000000
0.124359000000000
0.0932310000000000
0.0947570000000000
0.0785830000000000
0.0860600000000000
0.0982670000000000
0.115662000000000
0.0807190000000000
0.0282290000000000
0.0498960000000000
0.0611880000000000
0.0367740000000000
0.0134280000000000
-0.00595100000000000
-0.0910950000000000
-0.0915530000000000
-0.0157170000000000
0.0144960000000000
-0.0483700000000000
-0.0556950000000000
-0.0132750000000000
-0.0131230000000000
0.0100710000000000
0.0405880000000000
0.00778200000000000
-0.00747700000000000
0.00488300000000000
0.0117490000000000
0.00305200000000000
-0.0621030000000000
-0.0979610000000000
-0.126953000000000
-0.112762000000000
-0.0427250000000000
-0.0631710000000000
-0.0788880000000000
-0.0520320000000000
-0.0483700000000000
0.00839200000000000
0.0312810000000000
-0.000763000000000000
-0.0686650000000000
-0.0701900000000000
-0.0363160000000000
-0.00595100000000000
-0.0436400000000000
-0.0849910000000000
-0.153503000000000
-0.115204000000000
-0.111542000000000
-0.0773620000000000
-0.101776000000000
-0.123901000000000
-0.0798030000000000
-0.0657650000000000
-0.0137330000000000
0.0550840000000000
0.0410460000000000
-0.00793500000000000
-0.00976600000000000
0.0212100000000000
-0.00106800000000000
-0.0227360000000000
-0.0634770000000000
-0.0703430000000000
-0.0755310000000000
-0.0123600000000000
0.00412000000000000
-0.0267030000000000
-0.00824000000000000
0.0138850000000000
0.0436400000000000
0.0457760000000000
0.0762940000000000
0.0433350000000000
0.0260930000000000
0.0590520000000000
0.0350950000000000
0.000610000000000000
-0.0225830000000000
0.00930800000000000
-0.0715640000000000
-0.0135800000000000
0.0280760000000000
0.0352480000000000
0.0233460000000000
0.00488300000000000
0.0462340000000000
0.0480650000000000
0.0975040000000000
0.0711060000000000
0.0364690000000000
0.0210570000000000
0.0711060000000000
0.0360110000000000
-0.0144960000000000
-0.00503500000000000
-0.0337220000000000
-0.0245670000000000
-0.00824000000000000
0.0152590000000000
-0.0202940000000000
0.00335700000000000
0.0479130000000000
0.0309750000000000
0.0744630000000000
0.0987240000000000
0.0694270000000000
0.0643920000000000
0.0892640000000000
0.0685120000000000
0.0495910000000000
0.0253300000000000
0.0251770000000000
0.00579800000000000
0.0122070000000000
0.0738530000000000
0.0646970000000000
0.0326540000000000
0.0242610000000000
0.0479130000000000
0.0486760000000000
0.133209000000000
0.132141000000000
0.0878910000000000
0.0625610000000000
0.0689700000000000
0.0750730000000000
0.0364690000000000
0.0329590000000000
0.0157170000000000
-0.000305000000000000
0.0134280000000000
0.0773620000000000
0.0610350000000000
0.0219730000000000
0.0532530000000000
0.0871280000000000
0.101013000000000
0.133362000000000
0.139923000000000
0.0671390000000000
0.0529480000000000
0.0814820000000000
0.0886540000000000
0.0616460000000000
0.0460820000000000
-0.00640900000000000
-0.0155640000000000
0.00167800000000000
0.0379940000000000
-0.00686600000000000
0.0227360000000000
0.0704960000000000
0.0889590000000000
0.112152000000000
0.124054000000000
0.134888000000000
0.0651550000000000
0.0944520000000000
0.110321000000000
0.0607300000000000
0.0224300000000000
-0.0233460000000000
-0.0868230000000000
-0.0495910000000000
0.00824000000000000
0.0158690000000000
0.00885000000000000
-0.0218200000000000
-0.0405880000000000
0.0331120000000000
0.0521850000000000
0.0860600000000000
0.0306700000000000
0.0270080000000000
0.0268550000000000
0.0312810000000000
0.00106800000000000
-0.0395200000000000
-0.0486760000000000
-0.0610350000000000
-0.0306700000000000
-0.0520320000000000
-0.0466920000000000
-0.0665280000000000
-0.0367740000000000
-0.00701900000000000
-0.00213600000000000
0.0560000000000000
0.0141910000000000
-0.0166320000000000
-0.0209050000000000
-0.0390620000000000
-0.0302120000000000
-0.0700380000000000
-0.0694270000000000
-0.133514000000000
-0.135803000000000
-0.0772090000000000
-0.0738530000000000
-0.0987240000000000
-0.0881960000000000
-0.0779720000000000
-0.0538640000000000
-0.0283810000000000
-0.0148010000000000
-0.0381470000000000
-0.108948000000000
-0.0347900000000000
-0.0579830000000000
-0.0674440000000000
-0.0827030000000000
-0.119324000000000
-0.145721000000000
-0.141296000000000
-0.0761410000000000
-0.0982670000000000
-0.120850000000000
-0.0946040000000000
-0.0761410000000000
-0.0743100000000000
-0.0161740000000000
-0.00396700000000000
-0.0433350000000000
-0.0645450000000000
-0.0195310000000000
-0.0514220000000000
-0.0587460000000000
-0.0775150000000000
-0.139771000000000
-0.140991000000000
-0.129089000000000
-0.0907900000000000
-0.0996400000000000
-0.0776670000000000
-0.0819400000000000
-0.0529480000000000
-0.0230410000000000
-0.00289900000000000
-0.00351000000000000
-0.0660710000000000
-0.0714110000000000
-0.0390620000000000
-0.0366210000000000
-0.0683590000000000
-0.101471000000000
-0.138245000000000
-0.131378000000000
-0.0787350000000000
-0.0672910000000000
-0.0648500000000000
-0.0921630000000000
-0.0764470000000000
-0.0642400000000000
-0.0221250000000000
-0.0137330000000000
-0.0262450000000000
-0.0697330000000000
-0.0424190000000000
-0.0518800000000000
-0.0846860000000000
-0.114441000000000
-0.121613000000000
-0.122375000000000
-0.120392000000000
-0.0765990000000000
-0.109100000000000
-0.132141000000000
-0.101013000000000
-0.0968930000000000
-0.0816350000000000
-0.0685120000000000
-0.0143430000000000
-0.0529480000000000
-0.0704960000000000
-0.0459290000000000
-0.0508120000000000
-0.0758360000000000
-0.109558000000000
-0.141602000000000
-0.163879000000000
-0.120544000000000
-0.0765990000000000
-0.113068000000000
-0.114441000000000
-0.105286000000000
-0.0627140000000000
-0.0624080000000000
-0.0631710000000000
-0.00839200000000000
-0.0500490000000000
-0.0480650000000000
-0.0444030000000000
-0.0399780000000000
-0.0750730000000000
-0.123749000000000
-0.162201000000000
-0.146027000000000
-0.108795000000000
-0.0831600000000000
-0.121918000000000
-0.123749000000000
-0.0785830000000000
-0.0532530000000000
-0.0367740000000000
-0.0466920000000000
-0.0495910000000000
-0.0468440000000000
-0.0224300000000000
-0.0222780000000000
-0.0378420000000000
-0.0856020000000000
-0.0857540000000000
-0.119781000000000
-0.0996400000000000
-0.0544740000000000
-0.0544740000000000
-0.0550840000000000
0.00839200000000000
-0.00808700000000000
0.00869800000000000
0.0317380000000000
0.0534060000000000
0.0157170000000000
0.00869800000000000
0.0712590000000000
0.0605770000000000
0.0358580000000000
0.0338750000000000
0.0263980000000000
0.0175480000000000
0.0508120000000000
0.0860600000000000
0.0376890000000000
0.0234990000000000
0.0572200000000000
0.100861000000000
0.112000000000000
0.137634000000000
0.136261000000000
0.0794980000000000
0.109100000000000
0.128174000000000
0.102692000000000
0.0602720000000000
0.00869800000000000
-0.0241090000000000
-0.0141910000000000
0.0100710000000000
0.0186160000000000
0.0260930000000000
0.0315860000000000
0.0660710000000000
0.0997920000000000
0.125885000000000
0.136871000000000
0.0990300000000000
0.0732420000000000
0.111542000000000
0.0825500000000000
0.0700380000000000
0.0314330000000000
0.00457800000000000
-0.0395200000000000
-0.0181580000000000
-0.0128170000000000
-0.0437930000000000
-0.0770570000000000
-0.0801090000000000
-0.0535580000000000
-0.0158690000000000
0.0346370000000000
0.0489810000000000
0.0241090000000000
0.0111390000000000
0.0427250000000000
0.0325010000000000
-0.0369260000000000
-0.0711060000000000
-0.0570680000000000
-0.0390620000000000
-0.0370790000000000
-0.00671400000000000
-0.0555420000000000
-0.0131230000000000
0.00595100000000000
0.00869800000000000
0.0526430000000000
0.0698850000000000
0.0502010000000000
-0.0183110000000000
-0.0598140000000000
-0.0630190000000000
-0.0724790000000000
-0.129242000000000
-0.167084000000000
-0.153656000000000
-0.169220000000000
-0.156250000000000
-0.131226000000000
-0.156250000000000
-0.140991000000000
-0.122986000000000
-0.110931000000000
-0.0897220000000000
-0.0541690000000000
-0.0816350000000000
-0.160522000000000
-0.170593000000000
-0.163574000000000
-0.186615000000000
-0.210724000000000
-0.239258000000000
-0.267181000000000
-0.246277000000000
-0.169983000000000
-0.172729000000000
-0.192871000000000
-0.158691000000000
-0.164642000000000
-0.144806000000000
-0.117035000000000
-0.113678000000000
-0.158691000000000
-0.168762000000000
-0.135651000000000
-0.141144000000000
-0.163879000000000
-0.206299000000000
-0.222168000000000
-0.235596000000000
-0.213013000000000
-0.146484000000000
-0.187225000000000
-0.195618000000000
-0.170593000000000
-0.134125000000000
-0.0970460000000000
-0.103607000000000
-0.135956000000000
-0.163727000000000
-0.144196000000000
-0.132599000000000
-0.158081000000000
-0.182495000000000
-0.210571000000000
-0.246735000000000
-0.222168000000000
-0.171509000000000
-0.184937000000000
-0.221558000000000
-0.228577000000000
-0.241699000000000
-0.262146000000000
-0.247650000000000
-0.236511000000000
-0.248718000000000
-0.270081000000000
-0.203857000000000
-0.193634000000000
-0.246735000000000
-0.293274000000000
-0.316315000000000
-0.331116000000000
-0.280151000000000
-0.190887000000000
-0.170746000000000
-0.119934000000000
0.0175480000000000
0.140533000000000
0.304871000000000
0.361938000000000
0.475311000000000
0.493469000000000
0.623474000000000
0.806427000000000
1.00128200000000
1.23886100000000
1.33667000000000
1.56112700000000
1.74484300000000
1.93344100000000
2.11105300000000
2.21405000000000
2.30957000000000
2.46048000000000
2.66006500000000
2.66357400000000
2.64541600000000
2.64724700000000
2.63397200000000
2.60925300000000
2.44888300000000
2.23831200000000
1.97311400000000
1.67602500000000
1.46240200000000
1.27838100000000
1.12213100000000
0.998077000000000
0.830383000000000
0.690765000000000
0.511932000000000
0.319519000000000
0.155334000000000
-0.0708010000000000
-0.245667000000000
-0.405884000000000
-0.455780000000000
-0.547180000000000
-0.662537000000000
-0.736237000000000
-0.840302000000000
-0.876160000000000
-0.893402000000000
-0.880280000000000
-0.910950000000000
-0.906677000000000
-0.884552000000000
-0.879364000000000
-0.843201000000000
-0.755310000000000
-0.755463000000000
-0.806732000000000
-0.749664000000000
-0.697784000000000
-0.721893000000000
-0.703278000000000
-0.700836000000000
-0.695190000000000
-0.666046000000000
-0.636292000000000
-0.539703000000000
-0.550537000000000
-0.544586000000000
-0.469971000000000
-0.417023000000000
-0.320435000000000
-0.248413000000000
-0.243835000000000
-0.243988000000000
-0.179291000000000
-0.149994000000000
-0.164032000000000
-0.170593000000000
-0.161285000000000
-0.184021000000000
-0.138245000000000
-0.0962830000000000
-0.0828550000000000
-0.0999450000000000
-0.0541690000000000
-0.0418090000000000
-0.0181580000000000
0.0279240000000000
0.00762900000000000
-0.0157170000000000
-0.0474550000000000
-0.0231930000000000
-0.00305200000000000
-0.0244140000000000
-0.0404360000000000
-0.0617980000000000
-0.0929260000000000
-0.0668330000000000
-0.0224300000000000
-0.0158690000000000
0.00518800000000000
-0.00564600000000000
0.0173950000000000
0.0479130000000000
0.0418090000000000
0.0573730000000000
0.0331120000000000
0.0547790000000000
0.0662230000000000
0.0863650000000000
0.0271610000000000
-0.0111390000000000
-0.0323490000000000
-0.0134280000000000
0.0132750000000000
0.00762900000000000
-0.00198400000000000
0.0134280000000000
0.0411990000000000
0.0489810000000000
0.0912480000000000
0.104523000000000
0.0730900000000000
0.0424190000000000
0.0587460000000000
0.0584410000000000
0.0245670000000000
0.00473000000000000
-0.0190730000000000
-0.0285340000000000
-0.00762900000000000
0.0286870000000000
0.00534100000000000
-0.00213600000000000
0.0262450000000000
0.0579830000000000
0.0901790000000000
0.105438000000000
0.107422000000000
0.0822450000000000
0.0488280000000000
0.0387570000000000
0.0863650000000000
0.0561520000000000
0.0169370000000000
0.00610400000000000
-0.00930800000000000
0.0126650000000000
0.0596620000000000
0.0375370000000000
0.0363160000000000
0.0428770000000000
0.0892640000000000
0.104675000000000
0.132446000000000
0.173950000000000
0.102386000000000
0.0964360000000000
0.124512000000000
0.123138000000000
0.0550840000000000
0.0466920000000000
0.00915500000000000
0.0343320000000000
0.0965880000000000
0.0790410000000000
0.0553890000000000
0.118561000000000
0.150909000000000
0.153503000000000
0.209045000000000
0.192108000000000
0.186462000000000
0.154724000000000
0.173645000000000
0.201874000000000
0.151978000000000
0.134735000000000
0.118256000000000
0.103455000000000
0.0947570000000000
0.125427000000000
0.163574000000000
0.152588000000000
0.177460000000000
0.193481000000000
0.244141000000000
0.280609000000000
0.266266000000000
0.274048000000000
0.220795000000000
0.255890000000000
0.265808000000000
0.237885000000000
0.268097000000000
0.212097000000000
0.217438000000000
0.275574000000000
0.277405000000000
0.270691000000000
0.326385000000000
0.343628000000000
0.346527000000000
0.412750000000000
0.459290000000000
0.454254000000000
0.381470000000000
0.419617000000000
0.417938000000000
0.396881000000000
0.379639000000000
0.393066000000000
0.347748000000000
0.376740000000000
0.435638000000000
0.463409000000000
0.434418000000000
0.454865000000000
0.484161000000000
0.520782000000000
0.552216000000000
0.557556000000000
0.576019000000000
0.493011000000000
0.550690000000000
0.590363000000000
0.635529000000000
0.600281000000000
0.544586000000000
0.526428000000000
0.558929000000000
0.611115000000000
0.648346000000000
0.627289000000000
0.661926000000000
0.699768000000000
0.736237000000000
0.784912000000000
0.752869000000000
0.705261000000000
0.688324000000000
0.738220000000000
0.740662000000000
0.718079000000000
0.717468000000000
0.657959000000000
0.614014000000000
0.681915000000000
0.779572000000000
0.698090000000000
0.657196000000000
0.689087000000000
0.777588000000000
0.695648000000000
0.749969000000000
0.801697000000000
0.787201000000000
0.768280000000000
0.734711000000000
0.719299000000000
0.661774000000000
0.679626000000000
0.679779000000000
0.686188000000000
0.610046000000000
0.667419000000000
0.716705000000000
0.622406000000000
0.674896000000000
0.712433000000000
0.697479000000000
0.733032000000000
0.671234000000000
0.559235000000000
0.677185000000000
0.626831000000000
0.550079000000000
0.504303000000000
0.548706000000000
0.513458000000000
0.488281000000000
0.533447000000000
0.493011000000000
0.474243000000000
0.441589000000000
0.444794000000000
0.472717000000000
0.513611000000000
0.439148000000000
0.403442000000000
0.392609000000000
0.378876000000000
0.375214000000000
0.310822000000000
0.303955000000000
0.276642000000000
0.274353000000000
0.277100000000000
0.289612000000000
0.261536000000000
0.246124000000000
0.246735000000000
0.274658000000000
0.256195000000000
0.287018000000000
0.263062000000000
0.192108000000000
0.198059000000000
0.190582000000000
0.164490000000000
0.160828000000000
0.125885000000000
0.0656130000000000
0.0666810000000000
0.103455000000000
0.113220000000000
0.0660710000000000
0.0733950000000000
0.112457000000000
0.126343000000000
0.154419000000000
0.166473000000000
0.122833000000000
0.0704960000000000
0.0816350000000000
0.0775150000000000
0.0636290000000000
0.0239560000000000
0.0140380000000000
-0.00946000000000000
0.0189210000000000
0.0634770000000000
0.0462340000000000
0.0288390000000000
0.0230410000000000
0.0143430000000000
0.0265500000000000
0.0543210000000000
0.0627140000000000
0.0370790000000000
0.00351000000000000
0.0245670000000000
0.0119020000000000
-0.000916000000000000
-0.0337220000000000
-0.0773620000000000
-0.0947570000000000
-0.0712590000000000
-0.0360110000000000
-0.0515750000000000
-0.0451660000000000
-0.0256350000000000
0.00442500000000000
0.0402830000000000
0.0733950000000000
0.0535580000000000
0.00717200000000000
0.00671400000000000
0.0190730000000000
0.0453190000000000
0.00152600000000000
-0.0564580000000000
-0.0984190000000000
-0.0625610000000000
-0.00503500000000000
0
-0.0282290000000000
-0.0140380000000000
0.0132750000000000
0.0248720000000000
0.0839230000000000
0.0727840000000000
0.0404360000000000
0.0158690000000000
0.0338750000000000
0.0511170000000000
-0.0108340000000000
-0.0444030000000000
-0.0579830000000000
-0.0779720000000000
-0.0639340000000000
-0.00564600000000000
-0.00747700000000000
0.0178530000000000
0.00351000000000000
0.0425720000000000
0.0672910000000000
0.0854490000000000
0.0607300000000000
0.0344850000000000
0.0593570000000000
0.0863650000000000
0.0918580000000000
0.0466920000000000
0.0199890000000000
-0.0169370000000000
-0.00640900000000000
0.0422670000000000
0.0679020000000000
0.0347900000000000
0.0102230000000000
0.0683590000000000
0.0952150000000000
0.153809000000000
0.123444000000000
0.102081000000000
0.0741580000000000
0.125732000000000
0.118256000000000
0.0808720000000000
0.0773620000000000
0.0596620000000000
0.00976600000000000
0.0254820000000000
0.0888060000000000
0.0492860000000000
0.0474550000000000
0.0860600000000000
0.0700380000000000
0.0961300000000000
0.111542000000000
0.176544000000000
0.113983000000000
0.0740050000000000
0.0773620000000000
0.118256000000000
0.0634770000000000
0.0572200000000000
0.0354000000000000
0.0155640000000000
0.0129700000000000
0.0659180000000000
0.0239560000000000
-0.0175480000000000
0.0469970000000000
0.0648500000000000
0.0816350000000000
0.124969000000000
0.108337000000000
0.0448610000000000
0.0862120000000000
0.0971980000000000
0.0968930000000000
0.0297550000000000
0.0311280000000000
-0.00656100000000000
-0.0247190000000000
0.0225830000000000
0.0267030000000000
0.0325010000000000
0.0144960000000000
0.0437930000000000
0.0706480000000000
0.0665280000000000
0.0816350000000000
0.0309750000000000
0.0114440000000000
0.0775150000000000
0.0488280000000000
0.0683590000000000
0.0288390000000000
-0.0221250000000000
-0.0175480000000000
-0.0337220000000000
0.0126650000000000
0.00991800000000000
-0.0100710000000000
0.0466920000000000
0.0376890000000000
0.0764470000000000
0.100555000000000
0.101013000000000
0.0607300000000000
0.0175480000000000
0.0477600000000000
0.0236510000000000
0.0225830000000000
-0.00137300000000000
-0.00457800000000000
-0.0477600000000000
-0.00610400000000000
0.0257870000000000
0.00274700000000000
-0.0172420000000000
0.0140380000000000
0.0178530000000000
0.0808720000000000
0.0437930000000000
0.0595090000000000
0.0215150000000000
-0.0149540000000000
0.0341800000000000
0.0347900000000000
0.00671400000000000
0.0207520000000000
-0.0634770000000000
-0.0643920000000000
-0.0228880000000000
0.0166320000000000
-0.0221250000000000
-0.0131230000000000
0.00579800000000000
0.0256350000000000
0.103149000000000
0.0840760000000000
0.0686650000000000
0.0218200000000000
0.0466920000000000
0.0529480000000000
0.0268550000000000
-0.0306700000000000
0.00900300000000000
-0.0567630000000000
-0.0721740000000000
-0.0248720000000000
-0.0216670000000000
-0.0497440000000000
-0.0433350000000000
-0.0177000000000000
0.0273130000000000
0.0538640000000000
0.0469970000000000
0.0239560000000000
-0.0192260000000000
-0.000610000000000000
-0.00946000000000000
-0.0184630000000000
-0.0474550000000000
-0.0836180000000000
-0.0695800000000000
-0.0521850000000000
-0.00762900000000000
-0.0500490000000000
-0.0550840000000000
-0.0364690000000000
-0.0123600000000000
-0.00579800000000000
0.0247190000000000
0.0364690000000000
-0.0180050000000000
-0.0105290000000000
-0.0170900000000000
-0.00762900000000000
-0.0762940000000000
-0.0874330000000000
-0.101318000000000
-0.108032000000000
-0.0712590000000000
-0.0627140000000000
-0.0677490000000000
-0.0663760000000000
-0.0450130000000000
-0.0157170000000000
0.0241090000000000
0.0119020000000000
0.00198400000000000
-0.0411990000000000
-0.0242610000000000
0.00595100000000000
0.00457800000000000
-0.0421140000000000
-0.0698850000000000
-0.109100000000000
-0.0917050000000000
-0.0338750000000000
-0.0550840000000000
-0.0944520000000000
-0.0642400000000000
-0.0447080000000000
-0.0402830000000000
-0.00167800000000000
0.00778200000000000
-0.0337220000000000
-0.0910950000000000
-0.0512700000000000
-0.0523380000000000
-0.0772090000000000
-0.0880430000000000
-0.115814000000000
-0.126801000000000
-0.110016000000000
-0.0418090000000000
-0.0465390000000000
-0.0529480000000000
-0.0520320000000000
-0.0102230000000000
0.0106810000000000
-0.0108340000000000
0.0146480000000000
-0.0172420000000000
-0.0187680000000000
-0.0178530000000000
-0.0152590000000000
-0.0506590000000000
-0.0599670000000000
-0.0904850000000000
-0.104218000000000
-0.0610350000000000
-0.0604250000000000
-0.0460820000000000
-0.0540160000000000
-0.0410460000000000
-0.0144960000000000
0.00824000000000000
0.00930800000000000
0.0111390000000000
-0.0477600000000000
-0.0100710000000000
-0.0184630000000000
-0.0473020000000000
-0.0862120000000000
-0.0944520000000000
-0.120850000000000
-0.124359000000000
-0.0764470000000000
-0.0968930000000000
-0.102081000000000
-0.0862120000000000
-0.0210570000000000
0.00701900000000000
0.00442500000000000
0.00473000000000000
-0.0430300000000000
-0.0511170000000000